#    time [s]          t9 [GK]          density [g/cc]
  0.0000000000e+00  2.0000000000e-01  8.7290700000e+05
  8.4955700000e-06  2.0000000000e-01  8.7290700000e+05
  6.1097900000e-05  2.0000000000e-01  8.7290700000e+05
  3.8679800000e-04  2.0000000000e-01  8.7290700000e+05
  2.4034400000e-03  2.0000000000e-01  8.7290700000e+05
  1.4890000000e-02  2.0000100000e-01  8.7290400000e+05
  9.2203400000e-02  2.0000800000e-01  8.7290100000e+05
  5.7090800000e-01  2.0004900000e-01  8.7287300000e+05
  1.4431300000e+00  2.0014600000e-01  8.7281100000e+05
  2.3153500000e+00  2.0024300000e-01  8.7275300000e+05
  3.1875700000e+00  2.0033900000e-01  8.7269200000e+05
  4.0598000000e+00  2.0043600000e-01  8.7262700000e+05
  4.9320200000e+00  2.0053100000e-01  8.7256600000e+05
  5.8042400000e+00  2.0062700000e-01  8.7250800000e+05
  6.6764600000e+00  2.0072200000e-01  8.7244900000e+05
  7.5486900000e+00  2.0081700000e-01  8.7238800000e+05
  8.4209100000e+00  2.0091100000e-01  8.7232900000e+05
  9.2931300000e+00  2.0100600000e-01  8.7226800000e+05
  1.0165400000e+01  2.0110000000e-01  8.7221300000e+05
  1.1037600000e+01  2.0119300000e-01  8.7215100000e+05
  1.1909800000e+01  2.0128600000e-01  8.7209600000e+05
  1.2782000000e+01  2.0137900000e-01  8.7203400000e+05
  1.3654200000e+01  2.0147200000e-01  8.7197600000e+05
  1.4526500000e+01  2.0156400000e-01  8.7192100000e+05
  1.5398700000e+01  2.0165600000e-01  8.7185900000e+05
  1.6270900000e+01  2.0174800000e-01  8.7180400000e+05
  1.7143100000e+01  2.0183900000e-01  8.7174800000e+05
  1.8015400000e+01  2.0193000000e-01  8.7168700000e+05
  1.8887600000e+01  2.0202100000e-01  8.7163100000e+05
  1.9759800000e+01  2.0211100000e-01  8.7157600000e+05
  2.0632000000e+01  2.0220100000e-01  8.7151900000e+05
  2.1504200000e+01  2.0229100000e-01  8.7146400000e+05
  2.2376500000e+01  2.0238000000e-01  8.7140800000e+05
  2.3248700000e+01  2.0246900000e-01  8.7135300000e+05
  2.4120900000e+01  2.0255800000e-01  8.7129500000e+05
  2.4993100000e+01  2.0264700000e-01  8.7124500000e+05
  2.5865400000e+01  2.0273500000e-01  8.7118700000e+05
  2.6737600000e+01  2.0282300000e-01  8.7113400000e+05
  2.7609800000e+01  2.0291100000e-01  8.7107600000e+05
  2.8482000000e+01  2.0299800000e-01  8.7102600000e+05
  2.9354200000e+01  2.0308500000e-01  8.7097000000e+05
  3.0226500000e+01  2.0317200000e-01  8.7091800000e+05
  3.1098700000e+01  2.0325800000e-01  8.7086200000e+05
  3.1970900000e+01  2.0334400000e-01  8.7080700000e+05
  3.2843100000e+01  2.0343000000e-01  8.7075700000e+05
  3.3715400000e+01  2.0351600000e-01  8.7070500000e+05
  3.4587600000e+01  2.0360100000e-01  8.7065200000e+05
  3.5459800000e+01  2.0368600000e-01  8.7059700000e+05
  3.6332000000e+01  2.0377100000e-01  8.7054400000e+05
  3.7204200000e+01  2.0385500000e-01  8.7049400000e+05
  3.8076500000e+01  2.0394000000e-01  8.7043900000e+05
  3.8948700000e+01  2.0402400000e-01  8.7038600000e+05
  3.9820900000e+01  2.0410700000e-01  8.7033900000e+05
  4.0693100000e+01  2.0419000000e-01  8.7028300000e+05
  4.1565400000e+01  2.0427400000e-01  8.7023300000e+05
  4.2437600000e+01  2.0435600000e-01  8.7018400000e+05
  4.3309800000e+01  2.0443900000e-01  8.7013200000e+05
  4.4182000000e+01  2.0452100000e-01  8.7008200000e+05
  4.5054200000e+01  2.0460300000e-01  8.7003000000e+05
  4.5926500000e+01  2.0468500000e-01  8.6998200000e+05
  4.6798700000e+01  2.0476600000e-01  8.6993000000e+05
  4.7670900000e+01  2.0484800000e-01  8.6988100000e+05
  4.8543100000e+01  2.0492900000e-01  8.6983000000e+05
  4.9415400000e+01  2.0500900000e-01  8.6978400000e+05
  5.0287600000e+01  2.0509000000e-01  8.6973300000e+05
  5.1159800000e+01  2.0517000000e-01  8.6968200000e+05
  5.2032000000e+01  2.0525000000e-01  8.6963500000e+05
  5.2904300000e+01  2.0532900000e-01  8.6958900000e+05
  5.3776500000e+01  2.0540900000e-01  8.6953700000e+05
  5.4648700000e+01  2.0548800000e-01  8.6948800000e+05
  5.5520900000e+01  2.0556700000e-01  8.6944000000e+05
  5.6393100000e+01  2.0564500000e-01  8.6939600000e+05
  5.7265400000e+01  2.0572400000e-01  8.6934500000e+05
  5.8137600000e+01  2.0580200000e-01  8.6929800000e+05
  5.9009800000e+01  2.0588000000e-01  8.6925300000e+05
  5.9882000000e+01  2.0595800000e-01  8.6920400000e+05
  6.0754300000e+01  2.0603500000e-01  8.6915500000e+05
  6.1626500000e+01  2.0611200000e-01  8.6910900000e+05
  6.2498700000e+01  2.0618900000e-01  8.6906300000e+05
  6.3370900000e+01  2.0626600000e-01  8.6901700000e+05
  6.4243100000e+01  2.0634200000e-01  8.6897000000e+05
  6.5115400000e+01  2.0641800000e-01  8.6892300000e+05
  6.5987600000e+01  2.0649400000e-01  8.6887800000e+05
  6.6859800000e+01  2.0657000000e-01  8.6883000000e+05
  6.7732000000e+01  2.0664600000e-01  8.6878700000e+05
  6.8604300000e+01  2.0672100000e-01  8.6874000000e+05
  6.9476500000e+01  2.0679600000e-01  8.6869400000e+05
  7.0348700000e+01  2.0687100000e-01  8.6865000000e+05
  7.1220900000e+01  2.0694500000e-01  8.6860400000e+05
  7.2093100000e+01  2.0702000000e-01  8.6856100000e+05
  7.2965400000e+01  2.0709400000e-01  8.6851500000e+05
  7.3837600000e+01  2.0716800000e-01  8.6847000000e+05
  7.4709800000e+01  2.0724100000e-01  8.6842600000e+05
  7.5582000000e+01  2.0731500000e-01  8.6838100000e+05
  7.6454300000e+01  2.0738800000e-01  8.6833700000e+05
  7.7326500000e+01  2.0746100000e-01  8.6829300000e+05
  7.8198700000e+01  2.0753400000e-01  8.6825000000e+05
  7.9070900000e+01  2.0760600000e-01  8.6820700000e+05
  7.9943100000e+01  2.0767900000e-01  8.6816600000e+05
  8.0815400000e+01  2.0775100000e-01  8.6812000000e+05
  8.1687600000e+01  2.0782300000e-01  8.6807900000e+05
  8.2559800000e+01  2.0789400000e-01  8.6803300000e+05
  8.3432000000e+01  2.0796600000e-01  8.6799100000e+05
  8.4304300000e+01  2.0803700000e-01  8.6795200000e+05
  8.5176500000e+01  2.0810800000e-01  8.6790700000e+05
  8.6048700000e+01  2.0817900000e-01  8.6786300000e+05
  8.6920900000e+01  2.0825000000e-01  8.6782500000e+05
  8.7793100000e+01  2.0832000000e-01  8.6778100000e+05
  8.8665400000e+01  2.0839100000e-01  8.6773700000e+05
  8.9537600000e+01  2.0846100000e-01  8.6769500000e+05
  9.0409800000e+01  2.0853100000e-01  8.6765400000e+05
  9.1282000000e+01  2.0860000000e-01  8.6761300000e+05
  9.2154300000e+01  2.0867000000e-01  8.6757400000e+05
  9.3026500000e+01  2.0873900000e-01  8.6752800000e+05
  9.3898700000e+01  2.0880800000e-01  8.6749200000e+05
  9.4770900000e+01  2.0887700000e-01  8.6745300000e+05
  9.5643100000e+01  2.0894500000e-01  8.6741000000e+05
  9.6515400000e+01  2.0901400000e-01  8.6736800000e+05
  9.7387600000e+01  2.0908200000e-01  8.6732400000e+05
  9.8259800000e+01  2.0915000000e-01  8.6728700000e+05
  9.9132000000e+01  2.0921800000e-01  8.6724600000e+05
  1.0000400000e+02  2.0928600000e-01  8.6720900000e+05
  1.0087600000e+02  2.0935300000e-01  8.6716400000e+05
  1.0174900000e+02  2.0942100000e-01  8.6712800000e+05
  1.0262100000e+02  2.0948800000e-01  8.6708700000e+05
  1.0349300000e+02  2.0955500000e-01  8.6704700000e+05
  1.0436500000e+02  2.0962200000e-01  8.6701000000e+05
  1.0523800000e+02  2.0968800000e-01  8.6697100000e+05
  1.0611000000e+02  2.0975500000e-01  8.6693100000e+05
  1.0698200000e+02  2.0982100000e-01  8.6689300000e+05
  1.0785400000e+02  2.0988700000e-01  8.6685600000e+05
  1.0872600000e+02  2.0995300000e-01  8.6681700000e+05
  1.0959900000e+02  2.1001900000e-01  8.6677900000e+05
  1.1047100000e+02  2.1008400000e-01  8.6673700000e+05
  1.1134300000e+02  2.1014900000e-01  8.6670100000e+05
  1.1221500000e+02  2.1021500000e-01  8.6666100000e+05
  1.1308800000e+02  2.1028000000e-01  8.6662300000e+05
  1.1396000000e+02  2.1034400000e-01  8.6658700000e+05
  1.1483200000e+02  2.1040900000e-01  8.6654700000e+05
  1.1570400000e+02  2.1047400000e-01  8.6651000000e+05
  1.1657600000e+02  2.1053800000e-01  8.6647600000e+05
  1.1744900000e+02  2.1060200000e-01  8.6643700000e+05
  1.1832100000e+02  2.1066600000e-01  8.6639900000e+05
  1.1919300000e+02  2.1073000000e-01  8.6636000000e+05
  1.2006500000e+02  2.1079400000e-01  8.6632600000e+05
  1.2093800000e+02  2.1085700000e-01  8.6628900000e+05
  1.2181000000e+02  2.1092000000e-01  8.6624900000e+05
  1.2268200000e+02  2.1098400000e-01  8.6621500000e+05
  1.2355400000e+02  2.1104700000e-01  8.6617600000e+05
  1.2442600000e+02  2.1111000000e-01  8.6614200000e+05
  1.2529900000e+02  2.1117200000e-01  8.6610500000e+05
  1.2617100000e+02  2.1123500000e-01  8.6606800000e+05
  1.2704300000e+02  2.1129700000e-01  8.6603200000e+05
  1.2791500000e+02  2.1135900000e-01  8.6599900000e+05
  1.2878800000e+02  2.1142200000e-01  8.6596000000e+05
  1.2966000000e+02  2.1148300000e-01  8.6592500000e+05
  1.3053200000e+02  2.1154500000e-01  8.6588800000e+05
  1.3140400000e+02  2.1160700000e-01  8.6585400000e+05
  1.3227600000e+02  2.1166800000e-01  8.6582000000e+05
  1.3314900000e+02  2.1173000000e-01  8.6578300000e+05
  1.3402100000e+02  2.1179100000e-01  8.6574600000e+05
  1.3489300000e+02  2.1185200000e-01  8.6571300000e+05
  1.3576500000e+02  2.1191300000e-01  8.6567900000e+05
  1.3663800000e+02  2.1197400000e-01  8.6564200000e+05
  1.3751000000e+02  2.1203400000e-01  8.6561100000e+05
  1.3838200000e+02  2.1209500000e-01  8.6557600000e+05
  1.3925400000e+02  2.1215500000e-01  8.6553900000e+05
  1.4012600000e+02  2.1221500000e-01  8.6550200000e+05
  1.4099900000e+02  2.1227500000e-01  8.6547100000e+05
  1.4187100000e+02  2.1233500000e-01  8.6543700000e+05
  1.4274300000e+02  2.1239500000e-01  8.6540000000e+05
  1.4361500000e+02  2.1245400000e-01  8.6536900000e+05
  1.4448800000e+02  2.1251400000e-01  8.6533200000e+05
  1.4536000000e+02  2.1257300000e-01  8.6530100000e+05
  1.4623200000e+02  2.1263300000e-01  8.6526200000e+05
  1.4710400000e+02  2.1269200000e-01  8.6523400000e+05
  1.4797600000e+02  2.1275100000e-01  8.6519800000e+05
  1.4884900000e+02  2.1280900000e-01  8.6516800000e+05
  1.4972100000e+02  2.1286800000e-01  8.6513100000e+05
  1.5059300000e+02  2.1292700000e-01  8.6509900000e+05
  1.5146500000e+02  2.1298500000e-01  8.6506500000e+05
  1.5233800000e+02  2.1304300000e-01  8.6503400000e+05
  1.5321000000e+02  2.1310200000e-01  8.6500000000e+05
  1.5408200000e+02  2.1316000000e-01  8.6496800000e+05
  1.5495400000e+02  2.1321800000e-01  8.6493400000e+05
  1.5582600000e+02  2.1327500000e-01  8.6490000000e+05
  1.5669900000e+02  2.1333300000e-01  8.6486800000e+05
  1.5757100000e+02  2.1339100000e-01  8.6483400000e+05
  1.5844300000e+02  2.1344800000e-01  8.6480500000e+05
  1.5931500000e+02  2.1350500000e-01  8.6477200000e+05
  1.6018800000e+02  2.1356300000e-01  8.6474100000e+05
  1.6106000000e+02  2.1362000000e-01  8.6470700000e+05
  1.6193200000e+02  2.1367700000e-01  8.6467600000e+05
  1.6280400000e+02  2.1373400000e-01  8.6464600000e+05
  1.6367600000e+02  2.1379000000e-01  8.6461200000e+05
  1.6454900000e+02  2.1384700000e-01  8.6458100000e+05
  1.6542100000e+02  2.1390400000e-01  8.6455000000e+05
  1.6629300000e+02  2.1396000000e-01  8.6451400000e+05
  1.6716500000e+02  2.1401600000e-01  8.6448200000e+05
  1.6803800000e+02  2.1407200000e-01  8.6445100000e+05
  1.6891000000e+02  2.1412900000e-01  8.6442500000e+05
  1.6978200000e+02  2.1418500000e-01  8.6438700000e+05
  1.7065400000e+02  2.1424000000e-01  8.6435900000e+05
  1.7152600000e+02  2.1429600000e-01  8.6432800000e+05
  1.7239900000e+02  2.1435200000e-01  8.6429600000e+05
  1.7327100000e+02  2.1440700000e-01  8.6426800000e+05
  1.7414300000e+02  2.1446300000e-01  8.6423400000e+05
  1.7501500000e+02  2.1451800000e-01  8.6420200000e+05
  1.7588800000e+02  2.1457300000e-01  8.6417100000e+05
  1.7676000000e+02  2.1462800000e-01  8.6414000000e+05
  1.7763200000e+02  2.1468400000e-01  8.6411100000e+05
  1.7850400000e+02  2.1473800000e-01  8.6408400000e+05
  1.7937600000e+02  2.1479300000e-01  8.6405300000e+05
  1.8024900000e+02  2.1484800000e-01  8.6402000000e+05
  1.8112100000e+02  2.1490300000e-01  8.6398900000e+05
  1.8199300000e+02  2.1495700000e-01  8.6396000000e+05
  1.8286500000e+02  2.1501200000e-01  8.6392900000e+05
  1.8373800000e+02  2.1506600000e-01  8.6389800000e+05
  1.8461000000e+02  2.1512000000e-01  8.6386700000e+05
  1.8548200000e+02  2.1517400000e-01  8.6383800000e+05
  1.8635400000e+02  2.1522900000e-01  8.6380700000e+05
  1.8722600000e+02  2.1528200000e-01  8.6377800000e+05
  1.8809900000e+02  2.1533600000e-01  8.6374800000e+05
  1.8897100000e+02  2.1539000000e-01  8.6372000000e+05
  1.8984300000e+02  2.1544400000e-01  8.6369100000e+05
  1.9071500000e+02  2.1549800000e-01  8.6366200000e+05
  1.9158800000e+02  2.1555100000e-01  8.6363000000e+05
  1.9246000000e+02  2.1560500000e-01  8.6360200000e+05
  1.9333200000e+02  2.1565800000e-01  8.6357100000e+05
  1.9420400000e+02  2.1571100000e-01  8.6353900000e+05
  1.9507700000e+02  2.1576400000e-01  8.6351400000e+05
  1.9594900000e+02  2.1581800000e-01  8.6348300000e+05
  1.9682100000e+02  2.1587100000e-01  8.6345700000e+05
  1.9769300000e+02  2.1592400000e-01  8.6342600000e+05
  1.9856500000e+02  2.1597600000e-01  8.6339800000e+05
  1.9943800000e+02  2.1602900000e-01  8.6336700000e+05
  2.0031000000e+02  2.1608200000e-01  8.6333800000e+05
  2.0118200000e+02  2.1613500000e-01  8.6331000000e+05
  2.0205400000e+02  2.1618700000e-01  8.6328200000e+05
  2.0292700000e+02  2.1624000000e-01  8.6325300000e+05
  2.0379900000e+02  2.1629200000e-01  8.6322500000e+05
  2.0467100000e+02  2.1634400000e-01  8.6319600000e+05
  2.0554300000e+02  2.1639700000e-01  8.6316500000e+05
  2.0641500000e+02  2.1644900000e-01  8.6313900000e+05
  2.0728800000e+02  2.1650100000e-01  8.6310800000e+05
  2.0816000000e+02  2.1655300000e-01  8.6308000000e+05
  2.0903200000e+02  2.1660500000e-01  8.6305100000e+05
  2.0990400000e+02  2.1665700000e-01  8.6302300000e+05
  2.1077600000e+02  2.1670900000e-01  8.6299400000e+05
  2.1164900000e+02  2.1676100000e-01  8.6296900000e+05
  2.1252100000e+02  2.1681200000e-01  8.6293800000e+05
  2.1339300000e+02  2.1686400000e-01  8.6291200000e+05
  2.1426500000e+02  2.1691600000e-01  8.6288100000e+05
  2.1513800000e+02  2.1696700000e-01  8.6285600000e+05
  2.1601000000e+02  2.1701800000e-01  8.6282800000e+05
  2.1688200000e+02  2.1707000000e-01  8.6279900000e+05
  2.1775400000e+02  2.1712100000e-01  8.6277400000e+05
  2.1862700000e+02  2.1717200000e-01  8.6274300000e+05
  2.1949900000e+02  2.1722400000e-01  8.6271900000e+05
  2.2037100000e+02  2.1727500000e-01  8.6268700000e+05
  2.2124300000e+02  2.1732600000e-01  8.6266200000e+05
  2.2211500000e+02  2.1737700000e-01  8.6263400000e+05
  2.2298800000e+02  2.1742800000e-01  8.6260600000e+05
  2.2386000000e+02  2.1747900000e-01  8.6257800000e+05
  2.2473200000e+02  2.1753000000e-01  8.6255200000e+05
  2.2560400000e+02  2.1758100000e-01  8.6252400000e+05
  2.2647700000e+02  2.1763100000e-01  8.6249500000e+05
  2.2734900000e+02  2.1768200000e-01  8.6247100000e+05
  2.2822100000e+02  2.1773300000e-01  8.6244200000e+05
  2.2909300000e+02  2.1778300000e-01  8.6241700000e+05
  2.2996500000e+02  2.1783400000e-01  8.6238800000e+05
  2.3083800000e+02  2.1788400000e-01  8.6236000000e+05
  2.3171000000e+02  2.1793500000e-01  8.6233100000e+05
  2.3258200000e+02  2.1798500000e-01  8.6230600000e+05
  2.3345400000e+02  2.1803500000e-01  8.6227700000e+05
  2.3432700000e+02  2.1808600000e-01  8.6225200000e+05
  2.3519900000e+02  2.1813600000e-01  8.6222600000e+05
  2.3607100000e+02  2.1818600000e-01  8.6219800000e+05
  2.3694300000e+02  2.1823600000e-01  8.6216700000e+05
  2.3781500000e+02  2.1828700000e-01  8.6214200000e+05
  2.3868800000e+02  2.1833700000e-01  8.6211600000e+05
  2.3956000000e+02  2.1838700000e-01  8.6209100000e+05
  2.4043200000e+02  2.1843700000e-01  8.6206300000e+05
  2.4130400000e+02  2.1848700000e-01  8.6203400000e+05
  2.4217700000e+02  2.1853700000e-01  8.6200900000e+05
  2.4304900000e+02  2.1858600000e-01  8.6198000000e+05
  2.4392100000e+02  2.1863600000e-01  8.6195500000e+05
  2.4479300000e+02  2.1868600000e-01  8.6192900000e+05
  2.4566500000e+02  2.1873600000e-01  8.6190100000e+05
  2.4653800000e+02  2.1878600000e-01  8.6187500000e+05
  2.4741000000e+02  2.1883500000e-01  8.6185000000e+05
  2.4828200000e+02  2.1888500000e-01  8.6182100000e+05
  2.4915400000e+02  2.1893500000e-01  8.6179600000e+05
  2.5002700000e+02  2.1898400000e-01  8.6177000000e+05
  2.5089900000e+02  2.1903400000e-01  8.6174200000e+05
  2.5177100000e+02  2.1908300000e-01  8.6171600000e+05
  2.5264300000e+02  2.1913300000e-01  8.6169100000e+05
  2.5351500000e+02  2.1918200000e-01  8.6166500000e+05
  2.5438800000e+02  2.1923200000e-01  8.6163700000e+05
  2.5526000000e+02  2.1928100000e-01  8.6160800000e+05
  2.5613200000e+02  2.1933100000e-01  8.6158300000e+05
  2.5700400000e+02  2.1938000000e-01  8.6155700000e+05
  2.5787700000e+02  2.1942900000e-01  8.6153200000e+05
  2.5874900000e+02  2.1947900000e-01  8.6150300000e+05
  2.5962100000e+02  2.1952800000e-01  8.6147800000e+05
  2.6049300000e+02  2.1957700000e-01  8.6145200000e+05
  2.6136500000e+02  2.1962600000e-01  8.6142400000e+05
  2.6223800000e+02  2.1967600000e-01  8.6140100000e+05
  2.6311000000e+02  2.1972500000e-01  8.6137600000e+05
  2.6398200000e+02  2.1977400000e-01  8.6134700000e+05
  2.6485400000e+02  2.1982300000e-01  8.6132200000e+05
  2.6572700000e+02  2.1987200000e-01  8.6129600000e+05
  2.6659900000e+02  2.1992200000e-01  8.6126900000e+05
  2.6747100000e+02  2.1997100000e-01  8.6124000000e+05
  2.6834300000e+02  2.2002000000e-01  8.6121500000e+05
  2.6921500000e+02  2.2006900000e-01  8.6118900000e+05
  2.7008800000e+02  2.2011800000e-01  8.6116400000e+05
  2.7096000000e+02  2.2016700000e-01  8.6113800000e+05
  2.7183200000e+02  2.2021600000e-01  8.6111000000e+05
  2.7270400000e+02  2.2026500000e-01  8.6108400000e+05
  2.7357700000e+02  2.2031400000e-01  8.6105900000e+05
  2.7444900000e+02  2.2036300000e-01  8.6103700000e+05
  2.7532100000e+02  2.2041200000e-01  8.6100900000e+05
  2.7619300000e+02  2.2046100000e-01  8.6098300000e+05
  2.7706500000e+02  2.2051000000e-01  8.6095500000e+05
  2.7793800000e+02  2.2055900000e-01  8.6092900000e+05
  2.7881000000e+02  2.2060800000e-01  8.6090400000e+05
  2.7968200000e+02  2.2065700000e-01  8.6087800000e+05
  2.8055400000e+02  2.2070600000e-01  8.6085600000e+05
  2.8142700000e+02  2.2075500000e-01  8.6082400000e+05
  2.8229900000e+02  2.2080300000e-01  8.6079900000e+05
  2.8317100000e+02  2.2085200000e-01  8.6077300000e+05
  2.8404300000e+02  2.2090100000e-01  8.6074800000e+05
  2.8491500000e+02  2.2095000000e-01  8.6072200000e+05
  2.8578800000e+02  2.2099900000e-01  8.6069700000e+05
  2.8666000000e+02  2.2104800000e-01  8.6067100000e+05
  2.8753200000e+02  2.2109700000e-01  8.6064300000e+05
  2.8840400000e+02  2.2114600000e-01  8.6061700000e+05
  2.8927700000e+02  2.2119500000e-01  8.6059200000e+05
  2.9014900000e+02  2.2124400000e-01  8.6056400000e+05
  2.9102100000e+02  2.2129300000e-01  8.6053800000e+05
  2.9189300000e+02  2.2134200000e-01  8.6051300000e+05
  2.9276500000e+02  2.2139000000e-01  8.6049000000e+05
  2.9363800000e+02  2.2143900000e-01  8.6046200000e+05
  2.9451000000e+02  2.2148800000e-01  8.6043700000e+05
  2.9538200000e+02  2.2153700000e-01  8.6040900000e+05
  2.9625400000e+02  2.2158600000e-01  8.6038600000e+05
  2.9712700000e+02  2.2163500000e-01  8.6036000000e+05
  2.9799900000e+02  2.2168400000e-01  8.6033300000e+05
  2.9887100000e+02  2.2173300000e-01  8.6030800000e+05
  2.9974300000e+02  2.2178200000e-01  8.6028200000e+05
  3.0061500000e+02  2.2183100000e-01  8.6025400000e+05
  3.0148800000e+02  2.2188000000e-01  8.6023100000e+05
  3.0236000000e+02  2.2192900000e-01  8.6020300000e+05
  3.0323200000e+02  2.2197800000e-01  8.6017700000e+05
  3.0410400000e+02  2.2202700000e-01  8.6015200000e+05
  3.0497700000e+02  2.2207600000e-01  8.6012400000e+05
  3.0584900000e+02  2.2212500000e-01  8.6009600000e+05
  3.0672100000e+02  2.2217400000e-01  8.6007400000e+05
  3.0759300000e+02  2.2222400000e-01  8.6004900000e+05
  3.0846500000e+02  2.2227300000e-01  8.6002000000e+05
  3.0933800000e+02  2.2232200000e-01  8.5999300000e+05
